#The DR12 LOWZ pre-reconstruction power spectrum quadrupole bestfit
#k(h Mpc^-1) P(k)(Mpc/h)^3
0.043017 15219.592996 
0.046696 13515.688617 
0.050601 12554.267747 
0.054709 11585.487523 
0.059259 10843.574277 
0.064272 10115.873900 
0.069634 9571.840939 
0.075421 8997.596169 
0.081669 8305.466762 
0.088449 7462.752133 
0.095847 6338.105337 
0.103819 5245.274125 
0.112449 4348.979809 
0.121791 3753.814222 
0.131895 3396.113521 
0.142844 3087.745752 
0.154739 2610.419283 
0.167624 2057.928505 
0.181563 1603.448581 
0.196667 1334.011469 
0.213030 1121.967683 
0.230756 889.753113 