#The DR12 CMASS post-reconstruction power spectrum mu2-moment bestfit
#k(h Mpc^-1) P(k)(Mpc/h)^3 
 0.042899  27506.4  
 0.046801  26121  
 0.05107  25092.5  
 0.055696  24163.3  
 0.060748  23366.1  
 0.066262  22382.9  
 0.072261  21006.1  
 0.078838  19203.3  
 0.086011  17103.6  
 0.09381  15085.1  
 0.102317  13491.2  
 0.111615  12384  
 0.121751  11438.3  
 0.132799  10235.7  
 0.144853  8754.19  
 0.158002  7416.23  
 0.172358  6476.3  
 0.188011  5683.36  
 0.205075  4790.63  
 0.223687  4000.49  
 0.243994  3417.66  
 0.266151  2881.25  
 0.29031  2394.87  
