#The DR12 CMASS post-reconstruction power spectrum monopole bestfit
#k(h Mpc^-1) P(k)(Mpc/h)^3 
 0.02144  46182.1  
 0.023373  43768  
 0.025445  42352.6  
 0.027775  40552.5  
 0.030318  37811.2  
 0.033041  35249.9  
 0.036038  33024.5  
 0.039357  30686  
 0.042899  28507.8  
 0.046801  26742.5  
 0.05107  25290.8  
 0.055696  23976.6  
 0.060748  22869.2  
 0.066262  21669.9  
 0.072261  20186.1  
 0.078838  18345.3  
 0.086011  16239.2  
 0.09381  14183.8  
 0.102317  12514.7  
 0.111615  11363.5  
 0.121751  10480.3  
 0.132799  9454.94  
 0.144853  8141.32  
 0.158002  6871.29  
 0.172358  5976.62  
 0.188011  5311.86  
 0.205075  4556.6  
 0.223687  3826.94  
 0.243994  3312.5  
 0.266151  2863.6  
 0.29031  2417.31  
