#The DR12 LOWZ post-reconstruction power spectrum mu2moment bestfit
#k(h Mpc^-1) P(k)(Mpc/h)^3 
 0.043017  32146  
 0.046696  30331.5  
 0.050601  28927.1  
 0.054709  27667.1  
 0.059259  26577  
 0.064272  25372.3  
 0.069634  24017.5  
 0.075421  22387.2  
 0.081669  20418.1  
 0.088449  18287  
 0.095847  16149.9  
 0.103819  14379.9  
 0.112449  13041  
 0.121791  11974.9  
 0.131895  10883.4  
 0.142844  9603.01  
 0.154739  8258.6  
 0.167624  7135.13  
 0.181563  6291.66  
 0.196667  5537.62  
 0.21303  4751.58  
 0.230756  4046.55  
 0.249955  3483.07  
 0.270742  2977.67  
 0.293271  2519.24  
