#The DR12 LOWZ post-reconstruction power spectrum quadrupole bestfit
#k(h Mpc^-1) P(k)(Mpc/h)^3 
 0.043017 -921.298  
 0.046696 -233.921  
 0.050601  618.51  
 0.054709  1267.24  
 0.059259  1945.43  
 0.064272  2427.17  
 0.069634  2831.79  
 0.075421  3105.83  
 0.081669  3199.27  
 0.088449  3199.69  
 0.095847  3017.32  
 0.103819  2751.56  
 0.112449  2443.91  
 0.121791  2139.44  
 0.131895  1856.18  
 0.142844  1618.82  
 0.154739  1364.89  
 0.167624  1071.83  
 0.181563  746.8  
 0.196667  485.066  
 0.21303  311.252  
 0.230756  136.287  
 0.249955 -68.7922  
 0.270742 -221.882  
 0.293271 -339.467  
