#The DR12 LOWZ post-reconstruction power spectrum monopole bestfit
#k(h Mpc^-1) P(k)(Mpc/h)^3 
 0.021063  55181.6  
 0.022726  57717.2  
 0.024607  52619.1  
 0.026648  47275.7  
 0.028842  44579.2  
 0.031251  43252.6  
 0.033965  39818.6  
 0.0368  37135.9  
 0.039766  34833.7  
 0.043017  32514.5  
 0.046696  30425.1  
 0.050601  28679.7  
 0.054709  27160.2  
 0.059259  25798.8  
 0.064272  24401.4  
 0.069634  22884.8  
 0.075421  21144.9  
 0.081669  19138.4  
 0.088449  17007.1  
 0.095847  14943  
 0.103819  13279.3  
 0.112449  12063.4  
 0.121791  11119.1  
 0.131895  10140.9  
 0.142844  8955.48  
 0.154739  7712.64  
 0.167624  6706.4  
 0.181563  5992.94  
 0.196667  5343.59  
 0.21303  4627.08  
 0.230756  3992.04  
 0.249955  3510.59  
 0.270742  3066.42  
 0.293271  2655.03  
